Time, WP_X, WP_Y, WP_Z, WP_Yaw, WP_Pitch, WP_Roll, Velocity, Car_X, Car_Y, Car_Z, Car_Yaw, Car_Pitch, Car_Roll
0.33333373069763184, -112.17195892333984, -84.56281280517578, 0.0, 0.0, 360.0, 0.0, 0.0999999046206196, -112.20529174804688, -84.56281280517578, 2.6836394681595266e-05, 0.08630397915840149, 0.0, 0.0
0.6666677594184875, -112.16696166992188, -84.56281280517578, 0.0, 0.0014817746123299003, 360.0, 0.0, 0.11499972341592128, -112.20529174804688, -84.56281280517578, 2.6836394681595266e-05, 0.08630397915840149, 0.0, 0.0
1.0000017881393433, -112.16120910644531, -84.56281280517578, 0.0, 0.001511243637651205, 360.0, 0.0, 0.13224932967499564, -112.20529174804688, -84.56281280517578, -0.00012331009202171117, 0.08630397915840149, 0.0, 0.0
1.3333355784416199, -112.15459442138672, -84.56281280517578, 0.0, 0.0015466117765754461, 360.0, 0.0, 0.15208650078757488, -112.20529174804688, -84.56281280517578, -2.346038854739163e-06, 0.08630397915840149, 0.0, 0.0
1.6666697561740875, -112.14698791503906, -84.56281280517578, 0.0, 0.001589386141858995, 360.0, 0.0, 0.1748993923851179, -112.20529174804688, -84.56281280517578, 0.00012556076399050653, 0.08630397915840149, 0.0, 0.0
2.0000035166740417, -112.13824462890625, -84.56281280517578, 0.0, 0.0016415717545896769, 360.0, 0.0, 0.2011344132650576, -112.20529174804688, -84.56281280517578, 0.00020753860007971525, 0.08630397915840149, 0.0, 0.0
2.33333757519722, -112.12818908691406, -84.56281280517578, 0.0, 0.001705993083305657, 360.0, 0.0, 0.23130451334240312, -112.20529174804688, -84.56281280517578, 0.00023141859855968505, 0.08630397915840149, 0.0, 0.0
2.6666712760925293, -112.11662292480469, -84.56281280517578, 0.0, 0.0017866406124085188, 360.0, 0.0, 0.2659999595443738, -112.20529174804688, -84.56281280517578, 0.00025751112843863666, 0.08630397915840149, 0.0, 0.0
3.0000052750110626, -112.10332489013672, -84.56281280517578, 0.0, 0.001889328588731587, 360.0, 0.0, 0.3058998407688901, -112.20529174804688, -84.56281280517578, 0.0002751350402832031, 0.08630397915840149, 0.0, 0.0
3.33333882689476, -112.08802795410156, -84.56281280517578, 0.0, 0.002023084554821253, 360.0, 0.0, 0.35178429790839755, -112.20529174804688, -84.56281280517578, 0.0002849006559699774, 0.08630397915840149, 0.0, 0.0
3.6666731238365173, -112.07044219970703, -84.56281280517578, 0.0, 0.0022023285273462534, 360.0, 0.0, 0.40455182051536065, -112.20529174804688, -84.56281280517578, 0.0002879142703022808, 0.08630397915840149, 0.0, 0.0
4.000007390975952, -112.05021667480469, -84.56281280517578, 0.0, 0.0024522054009139538, 360.0, 0.0, 0.46523339522926005, -112.20529174804688, -84.56281280517578, 0.0002904701104853302, 0.08630397915840149, 0.0, 0.0
4.333340972661972, -112.0269546508789, -84.56281280517578, 0.0, 0.0028202293906360865, 360.0, 0.0, 0.5350162175688888, -112.20529174804688, -84.56281280517578, 0.00029226302285678685, 0.08630397915840149, 0.0, 0.0
4.666721612215042, -112.00020599365234, -84.56281280517578, 0.0, 0.003408434335142374, 360.0, 0.0, 0.6152663185823174, -112.20529174804688, -84.56281280517578, 0.000293331133434549, 0.08630397915840149, 0.0, 0.0
5.000055372714996, -111.96944427490234, -84.56281280517578, 0.0, 0.004483939614146948, 360.0, 0.0, 0.7075520352441121, -112.20529174804688, -84.56281280517578, 0.000293331133434549, 0.08630397915840149, 0.0, 0.0
5.333388924598694, -111.93406677246094, -84.56281280517578, 0.0, 0.00703792879357934, 360.0, 0.0, 0.8136782359644984, -112.20529174804688, -84.56281280517578, 0.000293331133434549, 0.08630397915840149, 0.0, 0.0
5.666722863912582, -111.89337921142578, -84.56280517578125, 0.0, 0.0, 360.0, 0.0, 0.9357221806762105, -112.20529174804688, -84.56281280517578, 0.000293331133434549, 0.08630397915840149, 0.0, 0.0
6.000056773424149, -111.84659576416016, -84.56280517578125, 0.0, 0.005677627865225077, 360.0, 0.0, 1.0315163058221106, -112.20529174804688, -84.56281280517578, 0.000293331133434549, 0.08630397915840149, 0.0, 0.0
6.333390951156616, -111.7950210571289, -84.56279754638672, 0.0, 0.005114781204611063, 360.0, 0.0, 1.0956068748843744, -112.20529174804688, -84.56281280517578, 0.000293331133434549, 0.08630397915840149, 0.0, 0.0
6.666724681854248, -111.74024200439453, -84.56278991699219, 0.0, 0.0043363189324736595, 360.0, 0.0, 1.1636792497954314, -112.20529174804688, -84.56281280517578, 0.000293331133434549, 0.08630397915840149, 0.0, 0.0
7.000058114528656, -111.68206024169922, -84.56278228759766, 0.0, 0.003047647885978222, 360.0, 0.0, 1.2359806426765596, -112.20529174804688, -84.56281280517578, 0.000293331133434549, 0.08630397915840149, 0.0, 0.0
7.3333919942379, -111.6202621459961, -84.56278228759766, 0.0, 0.005354745779186487, 360.0, 0.0, 1.3127730678625782, -112.20529174804688, -84.56281280517578, 0.000293331133434549, 0.08630397915840149, 0.0, 0.0
7.66672545671463, -111.55462646484375, -84.56277465820312, 0.0, 0.0, 360.0, 0.0, 1.3943357295458578, -112.20529174804688, -84.56281280517578, 0.000293331133434549, 0.08630397915840149, 0.0, 0.0
8.000059098005295, -111.48490905761719, -84.56275939941406, 0.0, 0.014069904573261738, 360.0, 0.0, 1.4654324636318354, -112.20529174804688, -84.56281280517578, 0.000293331133434549, 0.08630397915840149, 0.0, 0.0
8.333393156528473, -111.41163635253906, -84.562744140625, 0.0, 0.014829196035861969, 360.0, 0.0, 1.5352973697741372, -112.20529174804688, -84.56281280517578, 0.000293331133434549, 0.08630397915840149, 0.0, 0.0
8.666726738214493, -111.33486938476562, -84.5627212524414, 0.0, 0.01349406037479639, 360.0, 0.0, 1.6084934893431344, -112.20529174804688, -84.56281280517578, 0.000293331133434549, 0.08630397915840149, 0.0, 0.0
9.000060439109802, -111.25444793701172, -84.56270599365234, 0.0, 0.017785435542464256, 360.0, 0.0, 1.6851805172338379, -112.20529174804688, -84.56281280517578, 0.000293331133434549, 0.08630397915840149, 0.0, 0.0
9.33339411020279, -111.1701889038086, -84.56267547607422, 0.0, 0.02638399414718151, 360.0, 0.0, 1.760266883168663, -112.20529174804688, -84.56281280517578, 0.000293331133434549, 0.08630397915840149, 0.0, 0.0
9.666728049516678, -111.0821762084961, -84.56263732910156, 0.0, 0.02703317441046238, 360.0, 0.0, 1.8310172040936252, -112.20529174804688, -84.56281280517578, 0.000293331133434549, 0.08630397915840149, 0.0, 0.0
10.00006240606308, -110.9906234741211, -84.56259155273438, 0.0, 0.025787334889173508, 360.0, 0.0, 1.9046109649363732, -112.20529174804688, -84.56281280517578, 0.000293331133434549, 0.08630397915840149, 0.0, 0.0
10.333396196365356, -110.89539337158203, -84.56254577636719, 0.0, 0.01865704171359539, 360.0, 0.0, 1.981163883636724, -112.20529174804688, -84.56281280517578, 0.000293331133434549, 0.08630397915840149, 0.0, 0.0
10.666730254888535, -110.79633331298828, -84.56248474121094, 0.0, 0.03731739521026611, 360.0, 0.0, 2.053557893301207, -112.20529174804688, -84.56281280517578, 0.000293331133434549, 0.08630397915840149, 0.0, 0.0
11.000064074993134, -110.69365692138672, -84.56241607666016, 0.0, 0.03665576130151749, 360.0, 0.0, 2.1262746732722264, -112.20529174804688, -84.56281280517578, 0.000293331133434549, 0.08630397915840149, 0.0, 0.0
11.333398163318634, -110.58734130859375, -84.56234741210938, 0.0, 0.03589398413896561, 360.0, 0.0, 2.2015656460256534, -112.20529174804688, -84.56281280517578, 0.000293331133434549, 0.08630397915840149, 0.0, 0.0
11.666732162237167, -110.47726440429688, -84.56226348876953, 0.0, 0.051433905959129333, 360.0, 0.0, 2.2753560036097644, -112.20529174804688, -84.56281280517578, 0.000293331133434549, 0.08630397915840149, 0.0, 0.0
12.000065922737122, -110.36349487304688, -84.56216430664062, 0.0, 0.05250154435634613, 360.0, 0.0, 2.348198230144272, -112.20529174804688, -84.56281280517578, 0.000293331133434549, 0.08630397915840149, 0.0, 0.0
12.333399564027786, -110.24608612060547, -84.56205749511719, 0.0, 0.05358750745654106, 360.0, 0.0, 2.423373238160176, -112.20529174804688, -84.56281280517578, 0.000293331133434549, 0.08630397915840149, 0.0, 0.0
12.666733354330063, -110.12491607666016, -84.56192779541016, 0.0, 0.0673966035246849, 360.0, 0.0, 2.496814596575356, -112.20529174804688, -84.56281280517578, 0.000293331133434549, 0.08630397915840149, 0.0, 0.0
13.000067412853241, -110.00007629394531, -84.56178283691406, 0.0, 0.06824172288179398, 360.0, 0.0, 2.5703186494118224, -112.20529174804688, -84.56281280517578, 0.000293331133434549, 0.08630397915840149, 0.0, 0.0
13.333402127027512, -109.8715591430664, -84.56163024902344, 0.0, 0.0787786915898323, 360.0, 0.0, 2.645969661177648, -112.20529174804688, -84.56281280517578, 0.000293331133434549, 0.08630397915840149, 0.0, 0.0
13.666735738515854, -109.7392578125, -84.56144714355469, 0.0, 0.07843658328056335, 360.0, 0.0, 2.7184724543679537, -112.20529174804688, -84.56281280517578, 0.000293331133434549, 0.08630397915840149, 0.0, 0.0
14.000069916248322, -109.60333251953125, -84.56126403808594, 0.0, 0.08106932044029236, 360.0, 0.0, 2.792963016701327, -112.20529174804688, -84.56281280517578, 0.000293331133434549, 0.08630397915840149, 0.0, 0.0
14.333403944969177, -109.46368408203125, -84.56105041503906, 0.0, 0.09304825216531754, 360.0, 0.0, 2.8669995773297816, -112.19347381591797, -84.56279754638672, 0.00030782699468545616, 0.0860145315527916, 0.04846018925309181, 5.246004548098426e-06
14.666737705469131, -109.3203353881836, -84.5608139038086, 0.0, 0.09119893610477448, 360.0, 0.0, 2.9407855680630672, -112.12078857421875, -84.56268310546875, 0.00033571242238394916, 0.08544158935546875, 0.1473681479692459, -3.0517569030052982e-05
15.000071436166763, -109.17329406738281, -84.5605697631836, 0.0, 0.10299766808748245, 360.0, 0.0, 2.9999974067734483, -112.02519226074219, -84.56248474121094, 0.0003328513994347304, 0.09290055930614471, 0.13953392207622528, -0.00027465817402116954
15.33340522646904, -109.0232925415039, -84.560302734375, 0.0, 0.10399021208286285, 360.0, 0.0, 2.9999986976581496, -111.91818237304688, -84.56229400634766, 0.00032354352879337966, 0.09262081980705261, 0.10591574013233185, -0.00018310548330191523
15.666738957166672, -108.873291015625, -84.56002807617188, 0.0, 0.0, 360.0, 0.0, 2.9999999885595545, -111.80294036865234, -84.5621109008789, 0.00031595228938385844, 0.09228511899709702, 0.07821249216794968, -3.0517576306010596e-05
16.000072598457336, -108.7232894897461, -84.55973815917969, 0.0, 0.11363028734922409, 360.0, 0.0, 3.0, -111.68025207519531, -84.5619125366211, 0.0003111839178018272, 0.09179329872131348, 0.060583774000406265, 1.419133332092315e-05
16.333406239748, -108.57328796386719, -84.55944061279297, 0.0, 0.11353177577257156, 360.0, 0.0, 3.0, -111.54963684082031, -84.56171417236328, 0.00030866623274050653, 0.0916714072227478, 0.05136984959244728, 2.3233802494360134e-05
16.666740000247955, -108.42328643798828, -84.55912780761719, 0.0, 0.12031855434179306, 360.0, 0.0, 3.0, -111.41236877441406, -84.5615234375, 0.00030675888410769403, 0.09198891371488571, 0.04396592453122139, 2.555761057010386e-05
17.000073611736298, -108.27328491210938, -84.5588150024414, 0.0, 0.12216565757989883, 360.0, 0.0, 3.0, -111.2669906616211, -84.56132507324219, 0.0003066062927246094, 0.09134719520807266, 0.04349464178085327, 3.396292595425621e-05
17.333407402038574, -108.12328338623047, -84.55848693847656, 0.0, 0.12523648142814636, 360.0, 0.0, 3.0, -111.11356353759766, -84.5611343383789, 0.0003061485185753554, 0.09029574692249298, 0.042476944625377655, 4.023814108222723e-05
17.666740983724594, -107.97328186035156, -84.55815887451172, 0.0, 0.12512801587581635, 360.0, 0.0, 3.0, -110.95246124267578, -84.5609359741211, 0.00030595780117437243, 0.0894322544336319, 0.0417119637131691, 4.4189342588651925e-05
18.000075042247772, -107.82328033447266, -84.55783081054688, 0.0, 0.1305350661277771, 360.0, 0.0, 3.0, -110.78345489501953, -84.56069946289062, 0.00030595780117437243, 0.08857709914445877, 0.04161633923649788, 4.876813545706682e-05
18.333408653736115, -107.67327880859375, -84.55748748779297, 0.0, 0.12986329197883606, 360.0, 0.0, 3.0, -110.60641479492188, -84.56040954589844, 0.00030603408231399953, 0.08772087842226028, 0.04188954830169678, 5.28147465956863e-05
18.66674244403839, -107.52327728271484, -84.55714416503906, 0.0, 0.12922701239585876, 360.0, 0.0, 3.0, -110.42122650146484, -84.56011199951172, 0.0003061866736970842, 0.0868404433131218, 0.04227886721491814, 5.7957797253038734e-05
19.000076085329056, -107.37327575683594, -84.55680847167969, 0.0, 0.1301228255033493, 360.0, 0.0, 3.0, -110.22787475585938, -84.55982208251953, 0.00030622482881881297, 0.08593304455280304, 0.042558904737234116, 6.272134487517178e-05
19.333410263061523, -107.22327423095703, -84.55646514892578, 0.0, 0.12164691090583801, 360.0, 0.0, 3.0, -110.02772521972656, -84.55953216552734, 0.0003050804079975933, 0.08464367687702179, 0.03831052780151367, 0.00013129349099472165
19.666743963956833, -107.07327270507812, -84.5561294555664, 0.0, 0.13029642403125763, 360.0, 0.0, 3.0, -109.82572174072266, -84.55923461914062, 0.0003014564572367817, 0.08327553421258926, 0.02536049112677574, 0.00012540612078737468
20.000078350305557, -106.92327117919922, -84.5557861328125, 0.0, 0.12783508002758026, 360.0, 0.0, 3.0, -109.62487030029297, -84.55894470214844, 0.0002974510134663433, 0.08192488551139832, 0.011297131888568401, 0.00011011154856532812
20.333411991596222, -106.77326965332031, -84.55545806884766, 0.0, 0.12669029831886292, 360.0, 0.0, 3.0, -109.42659759521484, -84.55864715576172, 0.0002943992440123111, 0.08059661835432053, 0.00012977358710486442, 9.68028834904544e-05
20.666745603084564, -106.6232681274414, -84.55513000488281, 0.0, 0.12913739681243896, 360.0, 0.0, 3.0, -109.23151397705078, -84.5584487915039, 0.00029226302285678685, 0.07929136604070663, -0.007567849010229111, 8.748532127356157e-05
21.00007975101471, -106.4732666015625, -84.55480194091797, 0.0, 0.12072211503982544, 360.0, 0.0, 3.0, -109.03987121582031, -84.5582504272461, 0.00029096603975631297, 0.07800992578268051, -0.012362641282379627, 8.021512621780857e-05
21.33341407775879, -106.3232650756836, -84.55448913574219, 0.0, 0.12229999154806137, 360.0, 0.0, 3.0, -108.85176849365234, -84.55805206298828, 0.0002902030828408897, 0.0767502412199974, -0.015163019299507141, 7.527308480348438e-05
21.666747719049454, -106.17326354980469, -84.5542221069336, 0.0, 0.0, 360.0, 0.0, 3.0, -108.66715240478516, -84.557861328125, 0.0002897834638133645, 0.07551508396863937, -0.016631510108709335, 7.087139965733513e-05
22.0000818669796, -106.02326202392578, -84.5541763305664, 0.0, 0.020226458087563515, 360.0, 0.0, 3.0, -108.48601531982422, -84.55766296386719, 0.00028963087243027985, 0.07430081814527512, -0.017273547127842903, 6.692727765766904e-05
22.333416044712067, -105.87326049804688, -84.55412292480469, 0.0, 0.0, 360.0, 0.0, 3.0, -108.30821228027344, -84.5574722290039, 0.00028963087243027985, 0.07310835272073746, -0.017389660701155663, 6.482085154857486e-05
22.6667503118515, -105.72325897216797, -84.55406188964844, 0.0, 0.02367887645959854, 360.0, 0.0, 3.0, -108.13338470458984, -84.5572738647461, 0.0002898979000747204, 0.07341239601373672, -0.016269510611891747, -0.000213623046875
23.000084340572357, -105.57325744628906, -84.55400085449219, 0.0, 0.025262687355279922, 360.0, 0.0, 3.0, -107.9603500366211, -84.55707550048828, 0.00029077529325149953, 0.07404599338769913, -0.013120792806148529, -0.00018310545419808477
23.33341783285141, -105.42325592041016, -84.55392456054688, 0.0, 0.03008599765598774, 360.0, 0.0, 3.0, -107.78836822509766, -84.556884765625, 0.0002917289675679058, 0.07467630505561829, -0.009678377769887447, -0.00012207029067212716
23.666751861572266, -105.27325439453125, -84.55384826660156, 0.0, 0.03217056393623352, 360.0, 0.0, 3.0, -107.61705780029297, -84.55668640136719, 0.0002924918953794986, 0.07530197501182556, -0.006837018765509129, -9.155272709904239e-05
24.000085800886154, -105.12325286865234, -84.55374908447266, 0.0, 0.04001222923398018, 360.0, 0.0, 3.0, -107.44622802734375, -84.5564956665039, 0.00029306410579010844, 0.07592392712831497, -0.004815283231437206, -6.103515261202119e-05
24.33341944217682, -104.97325134277344, -84.55364227294922, 0.0, 0.03884751722216606, 360.0, 0.0, 3.0, -107.2757797241211, -84.5562973022461, 0.00029340744367800653, 0.07654447108507156, -0.0034492453560233116, -6.103515261202119e-05
24.66675293445587, -104.82324981689453, -84.55354309082031, 0.0, 0.04146970063447952, 360.0, 0.0, 3.0, -107.10564422607422, -84.55609893798828, 0.0002936363162007183, 0.07716277986764908, -0.002588641596958041, -3.0517576306010596e-05
25.000087559223175, -104.67324829101562, -84.55343627929688, 0.0, 0.042217593640089035, 360.0, 0.0, 3.0, -106.93579864501953, -84.55587005615234, 0.00029378890758380294, 0.07778042554855347, -0.0020490565802901983, -3.0517576306010596e-05
25.33342182636261, -104.52324676513672, -84.55332946777344, 0.0, 0.04124767333269119, 360.0, 0.0, 3.0, -106.76600646972656, -84.55567169189453, 0.00029405593522824347, 0.07794947177171707, -0.0010381886968389153, 5.0330541853327304e-05
25.66675591468811, -104.37324523925781, -84.55322265625, 0.0, 0.041648827493190765, 360.0, 0.0, 3.0, -106.59552764892578, -84.55547332763672, 0.00029466627165675163, 0.07801658660173416, 0.0010928302071988583, 4.285477916710079e-05
26.000089824199677, -104.2232437133789, -84.55311584472656, 0.0, 0.048762354999780655, 360.0, 0.0, 3.0, -106.42394256591797, -84.55528259277344, 0.00029527663718909025, 0.07807601988315582, 0.0032989811152219772, 2.6273832190781832e-05
26.33342406153679, -104.0732421875, -84.55300903320312, 0.0, 0.04126685485243797, 360.0, 0.0, 3.0, -106.25101470947266, -84.55508422851562, 0.0002957344113383442, 0.07813745737075806, 0.005027018953114748, 1.2689138202404138e-05
26.666758686304092, -103.9232406616211, -84.55290222167969, 0.0, 0.04263712465763092, 360.0, 0.0, 3.0, -106.07666778564453, -84.55489349365234, 0.00029607772012241185, 0.0781979039311409, 0.0061881509609520435, 6.06825778959319e-06
27.000093400478363, -103.77323913574219, -84.55279541015625, 0.0, 0.040993429720401764, 360.0, 0.0, 3.0, -105.90088653564453, -84.55469512939453, 0.0002962684666272253, 0.07825559377670288, 0.006884830072522163, 3.6501569411484525e-07
27.333427518606186, -103.62323760986328, -84.55268859863281, 0.0, 0.04133893921971321, 360.0, 0.0, 3.0, -105.7236328125, -84.55449676513672, 0.00029638290288858116, 0.07831650227308273, 0.007260490674525499, 4.07110976874403e-13
27.666761934757233, -103.47323608398438, -84.55258178710938, 0.0, 0.04241955652832985, 360.0, 0.0, 3.0, -105.54493713378906, -84.55420684814453, 0.00029642105801030993, 0.07837674021720886, 0.007424415089190006, 0.0
28.00009587407112, -103.32323455810547, -84.5524673461914, 0.0, 0.0407746322453022, 360.0, 0.0, 3.0, -105.36483001708984, -84.55391693115234, 0.00029642105801030993, 0.07837674021720886, 0.007424415089190006, 0.0
28.333430141210556, -103.17323303222656, -84.55236053466797, 0.0, 0.046433281153440475, 360.0, 0.0, 3.0, -105.18340301513672, -84.55361938476562, 0.0002963447477668524, 0.07836311310529709, 0.007199019193649292, 2.3459528165403754e-05
28.666764557361603, -103.02323150634766, -84.55223846435547, 0.0, 0.04624122381210327, 360.0, 0.0, 3.0, -105.00094604492188, -84.55332946777344, 0.00029615400126203895, 0.07825156301259995, 0.006488679442554712, 2.09585705306381e-05
29.000098675489426, -102.87322998046875, -84.55211639404297, 0.0, 0.0, 360.0, 0.0, 3.0, -104.81756591796875, -84.55303192138672, 0.0002959251287393272, 0.07814164459705353, 0.005703207571059465, 1.5797471860423684e-05
29.333432465791702, -102.72322845458984, -84.5519790649414, 0.0, 0.05446815490722656, 360.0, 0.0, 3.0, -104.63339233398438, -84.55274200439453, 0.00029577253735624254, 0.07803212851285934, 0.0050406791269779205, 1.0316737643734086e-05
29.66676703095436, -102.57322692871094, -84.55183410644531, 0.0, 0.05055880546569824, 360.0, 0.0, 3.0, -104.44849395751953, -84.55245208740234, 0.0002956199459731579, 0.07792145013809204, 0.0045489058829844, 9.10785274754744e-06
